,Time (ms),VConstant (v),VSpike (v),Temperature (C)
0,753.0,0.0,0.0,-127.0
1,755.0,0.0,0.0,-127.0
2,757.0,0.0,0.0,-127.0
3,759.0,0.0,0.0,-127.0
4,761.0,0.0,0.0,-127.0
5,763.0,0.0,0.0,-127.0
6,765.0,0.0,0.0,-127.0
7,768.0,0.0,0.0,-127.0
8,770.0,0.0,0.0,-127.0
9,772.0,0.0,0.0,-127.0
10,774.0,0.0,0.0,-127.0
11,776.0,0.0,0.0,-127.0
12,778.0,0.0,0.0,-127.0
13,780.0,0.0,0.0,-127.0
14,783.0,0.0,0.0,-127.0
15,785.0,0.0,0.0,-127.0
16,787.0,0.0,0.0,-127.0
17,789.0,0.0,0.0,-127.0
18,791.0,0.0,0.0,-127.0
19,793.0,0.0,0.0,-127.0
20,795.0,0.0,0.0,-127.0
21,797.0,0.0,0.0,-127.0
22,799.0,0.0,0.0,-127.0
23,801.0,0.0,0.0,-127.0
24,803.0,0.0,0.0,-127.0
25,805.0,0.0,0.0,-127.0
26,807.0,0.0,0.0,-127.0
27,809.0,0.0,0.0,-127.0
28,812.0,0.0,0.0,-127.0
29,814.0,0.0,0.0,-127.0
30,816.0,0.0,0.0,-127.0
31,819.0,0.0,0.0,-127.0
32,821.0,0.0,0.0,-127.0
33,823.0,0.0,0.0,-127.0
34,825.0,0.0,0.0,-127.0
35,827.0,0.0,0.0,-127.0
36,829.0,0.0,0.0,-127.0
37,831.0,0.0,0.0,-127.0
38,833.0,0.0,0.0,-127.0
39,835.0,0.0,0.0,-127.0
40,837.0,0.0,0.0,-127.0
41,839.0,0.0,0.0,-127.0
42,841.0,0.0,0.0,-127.0
43,843.0,0.0,0.0,-127.0
44,845.0,0.0,0.0,-127.0
45,847.0,0.0,0.0,-127.0
46,849.0,0.0,0.0,-127.0
47,852.0,0.0,0.0,-127.0
48,855.0,0.0,0.0,-127.0
49,857.0,0.0,0.0,-127.0
50,859.0,0.0,0.0,-127.0
51,861.0,0.0,0.0,-127.0
52,863.0,0.0,0.0,-127.0
53,865.0,0.0,0.0,-127.0
54,867.0,0.0,0.0,-127.0
55,869.0,0.0,0.0,-127.0
56,871.0,0.0,0.0,-127.0
57,873.0,0.0,0.0,-127.0
58,875.0,0.0,0.0,-127.0
59,877.0,0.0,0.0,-127.0
60,879.0,0.0,0.0,-127.0
61,882.0,0.0,0.0,-127.0
62,884.0,0.0,0.0,-127.0
63,886.0,0.0,0.0,-127.0
64,888.0,0.0,0.0,-127.0
65,890.0,0.0,0.0,-127.0
66,892.0,0.0,0.0,-127.0
67,894.0,0.0,0.0,-127.0
68,897.0,0.0,0.0,-127.0
69,899.0,0.0,0.0,-127.0
70,901.0,0.0,0.0,-127.0
71,903.0,0.0,0.0,-127.0
72,905.0,0.0,0.0,-127.0
73,907.0,0.0,0.0,-127.0
74,909.0,0.0,0.0,-127.0
75,911.0,0.0,0.0,-127.0
76,913.0,0.0,0.0,-127.0
77,915.0,0.0,0.0,-127.0
78,918.0,0.0,0.0,-127.0
79,920.0,0.0,0.0,-127.0
80,922.0,0.0,0.0,-127.0
81,924.0,0.0,0.0,-127.0
82,926.0,0.0,0.0,-127.0
83,928.0,0.0,0.0,-127.0
84,930.0,0.0,0.0,-127.0
85,932.0,0.0,0.0,-127.0
86,934.0,0.0,0.0,-127.0
87,936.0,0.0,0.0,-127.0
88,939.0,0.0,0.0,-127.0
89,941.0,0.0,0.0,-127.0
90,943.0,0.0,0.0,-127.0
91,945.0,0.0,0.0,-127.0
92,947.0,0.0,0.0,-127.0
93,949.0,0.0,0.0,-127.0
94,952.0,0.0,0.0,-127.0
95,954.0,0.0,0.0,-127.0
96,956.0,0.0,0.0,-127.0
97,958.0,0.0,0.0,-127.0
98,960.0,0.0,0.0,-127.0
99,962.0,0.0,0.0,-127.0
100,964.0,0.0,0.0,-127.0
101,966.0,0.0,0.0,-127.0
102,968.0,0.0,0.0,-127.0
103,970.0,0.0,0.0,-127.0
104,972.0,0.0,0.0,-127.0
105,974.0,0.0,0.0,-127.0
106,976.0,0.0,0.0,-127.0
107,978.0,0.0,0.0,-127.0
108,982.0,0.0,0.0,-127.0
109,984.0,0.0,0.0,-127.0
110,986.0,0.0,0.0,-127.0
111,988.0,0.0,0.0,-127.0
112,990.0,0.0,0.0,-127.0
113,992.0,0.0,0.0,-127.0
114,994.0,0.0,0.0,-127.0
115,996.0,0.0,0.0,-127.0
116,998.0,0.0,0.0,-127.0
117,1000.0,0.0,0.0,-127.0
118,1002.0,0.0,0.0,-127.0
119,1004.0,0.0,0.0,-127.0
120,1006.0,0.0,0.0,-127.0
121,1008.0,0.0,0.0,-127.0
122,1011.0,0.0,0.0,-127.0
123,1013.0,0.0,0.0,-127.0
124,1015.0,0.0,0.0,-127.0
125,1017.0,0.0,0.0,-127.0
126,1019.0,0.0,0.0,-127.0
127,1021.0,0.0,0.0,-127.0
128,1024.0,0.0,0.0,-127.0
129,1026.0,0.0,0.0,-127.0
130,1028.0,0.0,0.0,-127.0
131,1031.0,0.0,0.0,-127.0
132,1033.0,0.0,0.0,-127.0
133,1035.0,0.0,0.0,-127.0
134,1037.0,0.0,0.0,-127.0
135,1039.0,0.0,0.0,-127.0
136,1041.0,0.0,0.0,-127.0
137,1043.0,0.0,0.0,-127.0
138,1045.0,0.0,0.0,-127.0
139,1047.0,0.0,0.0,-127.0
140,1049.0,0.0,0.0,-127.0
141,1052.0,0.0,0.0,-127.0
142,1054.0,0.0,0.0,-127.0
143,1056.0,0.0,0.0,-127.0
144,1058.0,0.0,0.0,-127.0
145,1060.0,0.0,0.0,-127.0
146,1062.0,0.0,0.0,-127.0
147,1064.0,0.0,0.0,-127.0
148,1067.0,0.0,0.0,-127.0
149,1070.0,0.0,0.0,-127.0
150,1072.0,0.0,0.0,-127.0
151,1074.0,0.0,0.0,-127.0
152,1076.0,0.0,0.0,-127.0
153,1078.0,0.0,0.0,-127.0
154,1080.0,0.0,0.0,-127.0
155,1082.0,0.0,0.0,-127.0
156,1084.0,0.0,0.0,-127.0
157,1086.0,0.0,0.0,-127.0
158,1089.0,0.0,0.0,-127.0
159,1091.0,0.0,0.0,-127.0
160,1093.0,0.0,0.0,-127.0
161,1095.0,0.0,0.0,-127.0
162,1097.0,0.0,0.0,-127.0
163,1099.0,0.0,0.0,-127.0
164,1101.0,0.0,0.0,-127.0
165,1103.0,0.0,0.0,-127.0
166,1105.0,0.0,0.0,-127.0
167,1107.0,0.0,0.0,-127.0
168,1111.0,0.0,0.0,-127.0
169,1113.0,0.0,0.0,-127.0
170,1115.0,0.0,0.0,-127.0
171,1117.0,0.0,0.0,-127.0
172,1119.0,0.0,0.0,-127.0
173,1121.0,0.0,0.0,-127.0
174,1123.0,0.0,0.0,-127.0
175,1125.0,0.0,0.0,-127.0
176,1127.0,0.0,0.0,-127.0
177,1130.0,0.0,0.0,-127.0
178,1132.0,0.0,0.0,-127.0
179,1134.0,0.0,0.0,-127.0
180,1136.0,0.0,0.0,-127.0
181,1138.0,0.0,0.0,-127.0
182,1140.0,0.0,0.0,-127.0
183,1142.0,0.0,0.0,-127.0
184,1144.0,0.0,0.0,-127.0
185,1146.0,0.0,0.0,-127.0
186,1149.0,0.0,0.0,-127.0
187,1152.0,0.0,0.0,-127.0
188,1154.0,0.0,0.0,-127.0
189,1156.0,0.0,0.0,-127.0
190,1158.0,0.0,0.0,-127.0
191,1160.0,0.0,0.0,-127.0
192,1162.0,0.0,0.0,-127.0
193,1164.0,0.0,0.0,-127.0
194,1166.0,0.0,0.0,-127.0
195,1169.0,0.0,0.0,-127.0
196,1171.0,0.0,0.0,-127.0
197,1173.0,0.0,0.0,-127.0
198,1175.0,0.0,0.0,-127.0
199,1178356.0,0.0,0.0,21.94
200,1178358.0,0.3079,0.6012,21.94
201,1178360.0,0.0,0.5914,21.94
202,1178363.0,0.303,0.5914,21.94
203,1178365.0,0.0,0.6061,21.94
204,1178368.0,0.3079,0.6061,21.94
205,1178371.0,0.0,0.6012,21.94
206,1178373.0,0.3079,0.6012,21.94
207,1178375.0,0.0,0.6012,21.94
208,1178378.0,0.3079,0.6012,21.94
209,1178380.0,0.0,0.5914,21.94
210,1178382.0,0.303,0.5914,21.94
211,1178385.0,0.0,0.6207,21.94
212,1178387.0,0.3128,0.6207,21.94
213,1178389.0,0.0,0.5865,21.94
214,1178391.0,0.303,0.5865,21.94
215,1178394.0,0.0,0.6061,21.94
216,1178396.0,0.3079,0.6061,21.94
217,1178398.0,0.0,0.6012,21.94
218,1178401.0,0.3079,0.6012,21.94
219,1178403.0,0.0,0.6012,21.94
220,1178405.0,0.3079,0.6012,21.94
221,1178408.0,0.0,0.5963,21.94
222,1178411.0,0.3079,0.5963,21.94
223,1178413.0,0.0,0.6109,21.94
224,1178416.0,0.3079,0.6109,21.94
225,1178418.0,0.0,0.6158,21.94
226,1178420.0,0.3079,0.6158,21.94
227,1178423.0,0.0,0.6158,21.94
228,1178425.0,0.3079,0.6158,21.94
229,1178427.0,0.0,0.6109,21.94
230,1178429.0,0.3079,0.6109,21.94
231,1178432.0,0.0,0.6256,21.94
232,1178434.0,0.3128,0.6256,21.94
233,1178436.0,0.0,0.6158,21.94
234,1178439.0,0.3079,0.6158,21.94
235,1178441.0,0.0,0.6109,21.94
236,1178443.0,0.3079,0.6109,21.94
237,1178446.0,0.0,0.5816,21.94
238,1178448.0,0.303,0.5816,21.94
239,1178450.0,0.0,0.6012,21.94
240,1178454.0,0.3079,0.6012,21.94
241,1178456.0,0.0,0.5914,21.94
242,1178458.0,0.303,0.5914,21.94
243,1178461.0,0.0,0.6158,21.94
244,1178463.0,0.3079,0.6158,21.94
245,1178465.0,0.0,0.6158,21.94
246,1178468.0,0.3079,0.6158,21.94
247,1178470.0,0.0,0.5914,21.94
248,1178472.0,0.303,0.5914,21.94
249,1178475.0,0.0,0.6158,21.94
250,1178477.0,0.3079,0.6158,21.94
251,1178479.0,0.0,0.6109,21.94
252,1178481.0,0.3079,0.6109,21.94
253,1178484.0,0.0,0.5865,21.94
254,1178486.0,0.303,0.5865,21.94
255,1178488.0,0.0,0.6061,21.94
256,1178491.0,0.3079,0.6061,21.94
257,1178493.0,0.0,0.5963,21.94
258,1178496.0,0.303,0.5963,21.94
259,1178499.0,0.0,0.6158,21.94
260,1178501.0,0.3079,0.6158,21.94
261,1178503.0,0.0,0.6158,21.94
262,1178506.0,0.3079,0.6158,21.94
263,1178508.0,0.0,0.6061,21.94
264,1178510.0,0.3079,0.6061,21.94
265,1178513.0,0.0,0.6012,21.94
266,1178515.0,0.3079,0.6012,21.94
267,1178517.0,0.0,0.6012,21.94
268,1178519.0,0.3079,0.6012,21.94
269,1178522.0,0.0,0.6012,21.94
270,1178524.0,0.3079,0.6012,21.94
271,1178526.0,0.0,0.6012,21.94
272,1178529.0,0.3079,0.6012,21.94
273,1178531.0,0.0,0.5963,21.94
274,1178533.0,0.303,0.5963,21.94
275,1178536.0,0.0,0.6109,21.94
276,1178539.0,0.3079,0.6109,21.94
277,1178541.0,0.0,0.6207,21.94
278,1178544.0,0.3128,0.6207,21.94
279,1178546.0,0.0,0.6207,21.94
280,1178548.0,0.3079,0.6207,21.94
281,1178551.0,0.0,0.5865,21.94
282,1178553.0,0.303,0.5865,21.94
283,1178555.0,0.0,0.6109,21.94
284,1178557.0,0.3079,0.6109,21.94
285,1178560.0,0.0,0.5865,21.94
286,1178562.0,0.303,0.5865,21.94
287,1178564.0,0.0,0.6061,21.94
288,1178567.0,0.3079,0.6061,21.94
289,1178569.0,0.0,0.5963,21.94
290,1178571.0,0.303,0.5963,21.94
291,1178574.0,0.0,0.6109,21.94
292,1178576.0,0.3079,0.6109,21.94
293,1178578.0,0.0,0.6158,21.94
294,1178582.0,0.3079,0.6158,21.94
295,1178584.0,0.0,0.6061,21.94
296,1178586.0,0.3079,0.6061,21.94
297,1178589.0,0.0,0.6012,21.94
298,1178591.0,0.303,0.6012,21.94
299,1178593.0,0.0,0.6012,21.94
300,1178595.0,0.3079,0.6012,21.94
301,1178598.0,0.0,0.6012,21.94
302,1178600.0,0.303,0.6012,21.94
303,1178602.0,0.0,0.6012,21.94
304,1178605.0,0.3079,0.6012,21.94
305,1178607.0,0.0,0.5963,21.94
306,1178609.0,0.303,0.5963,21.94
307,1178612.0,0.0,0.6109,21.94
308,1178614.0,0.3079,0.6109,21.94
309,1178616.0,0.0,0.6158,21.94
310,1178619.0,0.3079,0.6158,21.94
311,1178621.0,0.0,0.6012,21.94
312,1178624.0,0.3079,0.6012,21.94
313,1178627.0,0.0,0.6012,21.94
314,1178629.0,0.3079,0.6012,21.94
315,1178631.0,0.0,0.6012,21.94
316,1178633.0,0.3079,0.6012,21.94
317,1178636.0,0.0,0.5914,21.94
318,1178638.0,0.303,0.5914,21.94
319,1178641.0,0.0,0.6207,21.94
320,1178643.0,0.3079,0.6207,21.94
321,1178645.0,0.0,0.5865,21.94
322,1178647.0,0.303,0.5865,21.94
323,1178650.0,0.0,0.6012,21.94
324,1178652.0,0.3079,0.6012,21.94
325,1178654.0,0.0,0.6012,21.94
326,1178657.0,0.3079,0.6012,21.94
327,1178659.0,0.0,0.5963,21.94
328,1178661.0,0.3079,0.5963,21.94
329,1178664.0,0.0,0.6109,21.94
330,1178667.0,0.3079,0.6109,21.94
331,1178669.0,0.0,0.5914,21.94
332,1178672.0,0.303,0.5914,21.94
333,1178674.0,0.0,0.6061,21.94
334,1178676.0,0.3079,0.6061,21.94
335,1178679.0,0.0,0.6012,21.94
336,1178681.0,0.3079,0.6012,21.94
337,1178683.0,0.0,0.6012,21.94
338,1178685.0,0.303,0.6012,21.94
339,1178688.0,0.0,0.6012,21.94
340,1178690.0,0.303,0.6012,21.94
341,1178692.0,0.0,0.6012,21.94
342,1178695.0,0.303,0.6012,21.94
343,1178697.0,0.0,0.6012,21.94
344,1178699.0,0.303,0.6012,21.94
345,1178702.0,0.0,0.6012,21.94
346,1178704.0,0.303,0.6012,21.94
347,1178706.0,0.0,0.6061,21.94
348,1178710.0,0.3079,0.6061,21.94
349,1178712.0,0.0,0.5914,21.94
350,1178714.0,0.303,0.5914,21.94
351,1178717.0,0.0,0.6207,21.94
352,1178719.0,0.3128,0.6207,21.94
353,1178721.0,0.0,0.5914,21.94
354,1178723.0,0.303,0.5914,21.94
355,1178726.0,0.0,0.6158,21.94
356,1178728.0,0.3079,0.6158,21.94
357,1178730.0,0.0,0.6158,21.94
358,1178733.0,0.3079,0.6158,21.94
359,1178735.0,0.0,0.6109,21.94
360,1178737.0,0.3079,0.6109,21.94
361,1178740.0,0.0,0.5865,21.94
362,1178742.0,0.303,0.5865,21.94
363,1178744.0,0.0,0.5963,21.94
364,1178747.0,0.303,0.5963,21.94
365,1178749.0,0.0,0.6012,21.94
366,1178752.0,0.303,0.6012,21.94
367,1178755.0,0.0,0.6061,21.94
368,1178757.0,0.3079,0.6061,21.94
369,1178759.0,0.0,0.6012,21.94
370,1178761.0,0.3079,0.6012,21.94
371,1178764.0,0.0,0.6012,21.94
372,1178766.0,0.3079,0.6012,21.94
373,1178768.0,0.0,0.6012,21.94
374,1178771.0,0.3079,0.6012,21.94
375,1178773.0,0.0,0.6012,21.94
376,1178775.0,0.303,0.6012,21.94
377,1178778.0,0.0,0.6012,21.94
378,1178780.0,0.3079,0.6012,21.94
379,1178782.0,0.0,0.6012,21.94
380,1178785.0,0.3079,0.6012,21.94
381,1178787.0,0.0,0.6207,21.94
382,1178789.0,0.3128,0.6207,21.94
383,1178792.0,0.0,0.5914,21.94
384,1178795.0,0.303,0.5914,21.94
385,1178797.0,0.0,0.6207,21.94
386,1178800.0,0.3128,0.6207,21.94
387,1178802.0,0.0,0.6109,21.94
388,1178804.0,0.3079,0.6109,21.94
389,1178807.0,0.0,0.5865,21.94
390,1178809.0,0.303,0.5865,21.94
391,1178811.0,0.0,0.6012,21.94
392,1178813.0,0.3079,0.6012,21.94
393,1178816.0,0.0,0.6012,21.94
394,1178818.0,0.303,0.6012,21.94
395,1178820.0,0.0,0.6012,21.94
396,1178823.0,0.3079,0.6012,21.94
397,1178825.0,0.0,0.6012,21.94
398,1178827.0,0.3079,0.6012,21.94
399,1178830.0,0.0,0.6012,21.94
400,1178832.0,0.303,0.6012,21.94
401,1178834.0,0.0,0.6061,21.94
402,1178838.0,0.3079,0.6061,21.94
403,1178840.0,0.0,0.5963,21.94
404,1178842.0,0.303,0.5963,21.94
405,1178845.0,0.0,0.6158,21.94
406,1178847.0,0.3079,0.6158,21.94
407,1178849.0,0.0,0.6158,21.94
408,1178851.0,0.3079,0.6158,21.94
409,1178854.0,0.0,0.6158,21.94
410,1178856.0,0.3079,0.6158,21.94
411,1178858.0,0.0,0.6158,21.94
412,1178861.0,0.3079,0.6158,21.94
413,1178863.0,0.0,0.6158,21.94
414,1178865.0,0.3079,0.6158,21.94
415,1178868.0,0.0,0.6158,21.94
416,1178870.0,0.3079,0.6158,21.94
417,1178872.0,0.0,0.6061,21.94
418,1178875.0,0.3079,0.6061,21.94
419,1178877.0,0.0,0.5914,21.94
420,1178880.0,0.303,0.5914,21.94
421,1178883.0,0.0,0.6207,21.94
422,1178885.0,0.3128,0.6207,21.94
423,1178887.0,0.0,0.5865,21.94
424,1178890.0,0.303,0.5865,21.94
425,1178892.0,0.0,0.5914,21.94
426,1178894.0,0.303,0.5914,21.94
427,1178897.0,0.0,0.6158,21.94
428,1178899.0,0.3079,0.6158,21.94
429,1178901.0,0.0,0.6109,21.94
430,1178903.0,0.3079,0.6109,21.94
431,1178906.0,0.0,0.5816,21.94
432,1178908.0,0.303,0.5816,21.94
433,1178910.0,0.0,0.6158,21.94
434,1178913.0,0.3079,0.6158,21.94
435,1178915.0,0.0,0.6109,21.94
436,1178917.0,0.3079,0.6109,21.94
437,1178920.0,0.0,0.5865,21.94
438,1178923.0,0.303,0.5865,21.94
439,1178925.0,0.0,0.6061,21.94
440,1178928.0,0.3079,0.6061,21.94
441,1178930.0,0.0,0.6158,21.94
442,1178932.0,0.3079,0.6158,21.94
443,1178935.0,0.0,0.6158,21.94
444,1178937.0,0.3079,0.6158,21.94
445,1178939.0,0.0,0.6109,21.94
446,1178941.0,0.3079,0.6109,21.94
447,1178944.0,0.0,0.5816,21.94
448,1178946.0,0.303,0.5816,21.94
449,1178948.0,0.0,0.6158,21.94
450,1178951.0,0.3079,0.6158,21.94
451,1178953.0,0.0,0.6109,21.94
452,1178955.0,0.3079,0.6109,21.94
453,1178958.0,0.0,0.5865,21.94
454,1178960.0,0.303,0.5865,21.94
455,1178962.0,0.0,0.6061,21.94
456,1178966.0,0.3079,0.6061,21.94
457,1178968.0,0.0,0.5865,21.94
458,1178970.0,0.303,0.5865,21.94
459,1178973.0,0.0,0.6061,21.94
460,1178975.0,0.3079,0.6061,21.94
461,1178977.0,0.0,0.6012,21.94
462,1178979.0,0.303,0.6012,21.94
463,1178982.0,0.0,0.5963,21.94
464,1178984.0,0.303,0.5963,21.94
465,1178986.0,0.0,0.6158,21.94
466,1178989.0,0.3079,0.6158,21.94
467,1178991.0,0.0,0.6109,21.94
468,1178993.0,0.3079,0.6109,21.94
469,1178996.0,0.0,0.5865,21.94
470,1178998.0,0.303,0.5865,21.94
471,1179000.0,0.0,0.5963,21.94
472,1179003.0,0.303,0.5963,21.94
473,1179005.0,0.0,0.6012,21.94
474,1179008.0,0.3079,0.6012,21.94
475,1179011.0,0.0,0.6061,21.94
476,1179013.0,0.3079,0.6061,21.94
477,1179015.0,0.0,0.6012,21.94
478,1179017.0,0.3079,0.6012,21.94
479,1179020.0,0.0,0.6012,21.94
480,1179022.0,0.303,0.6012,21.94
481,1179024.0,0.0,0.6012,21.94
482,1179027.0,0.3079,0.6012,21.94
483,1179029.0,0.0,0.6012,21.94
484,1179031.0,0.303,0.6012,21.94
485,1179034.0,0.0,0.6012,21.94
486,1179036.0,0.303,0.6012,21.94
487,1179038.0,0.0,0.5914,21.94
488,1179041.0,0.303,0.5914,21.94
489,1179043.0,0.0,0.6061,21.94
490,1179045.0,0.3079,0.6061,21.94
491,1179048.0,0.0,0.6012,21.94
492,1179051.0,0.303,0.6012,21.94
493,1179053.0,0.0,0.6012,21.94
494,1179056.0,0.3079,0.6012,21.94
495,1179058.0,0.0,0.5914,21.94
496,1179060.0,0.303,0.5914,21.94
497,1179063.0,0.0,0.6207,21.94
498,1179065.0,0.3079,0.6207,21.94
499,1179067.0,0.0,0.5865,21.94
500,1179069.0,0.303,0.5865,21.94
501,1179072.0,0.0,0.6061,21.94
502,1179074.0,0.3079,0.6061,21.94
503,1179076.0,0.0,0.6061,21.94
504,1179079.0,0.303,0.6061,21.94
505,1179081.0,0.0,0.6012,21.94
506,1179083.0,0.303,0.6012,21.94
507,1179086.0,0.0,0.5963,21.94
508,1179088.0,0.303,0.5963,21.94
509,1179090.0,0.0,0.6158,21.94
510,1179094.0,0.3079,0.6158,21.94
511,1179096.0,0.0,0.5914,21.94
512,1179098.0,0.303,0.5914,21.94
513,1179101.0,0.0,0.6207,21.94
514,1179103.0,0.3079,0.6207,21.94
515,1179105.0,0.0,0.5865,21.94
516,1179107.0,0.303,0.5865,21.94
517,1179110.0,0.0,0.6061,21.94
518,1179112.0,0.3079,0.6061,21.94
519,1179114.0,0.0,0.6061,21.94
520,1179117.0,0.3079,0.6061,21.94
521,1179119.0,0.0,0.6012,21.94
522,1179121.0,0.303,0.6012,21.94
523,1179124.0,0.0,0.6012,21.94
524,1179126.0,0.303,0.6012,21.94
525,1179128.0,0.0,0.6012,21.94
526,1179131.0,0.3079,0.6012,21.94
527,1179133.0,0.0,0.5865,21.94
528,1179136.0,0.303,0.5865,21.94
529,1179139.0,0.0,0.6109,21.94
530,1179141.0,0.3079,0.6109,21.94
531,1179143.0,0.0,0.5914,21.94
532,1179145.0,0.303,0.5914,21.94
533,1179148.0,0.0,0.6158,21.94
534,1179150.0,0.3079,0.6158,21.94
535,1179152.0,0.0,0.6207,21.94
536,1179155.0,0.3079,0.6207,21.94
537,1179157.0,0.0,0.5865,21.94
538,1179159.0,0.303,0.5865,21.94
539,1179162.0,0.0,0.6061,21.94
540,1179164.0,0.3079,0.6061,21.94
541,1179166.0,0.0,0.6012,21.94
542,1179169.0,0.3079,0.6012,21.94
543,1179171.0,0.0,0.5914,21.94
544,1179173.0,0.303,0.5914,21.94
545,1179176.0,0.0,0.6207,21.94
546,1179179.0,0.3079,0.6207,21.94
547,1179181.0,0.0,0.5914,21.94
548,1179184.0,0.303,0.5914,21.94
549,1179186.0,0.0,0.5963,21.94
550,1179188.0,0.303,0.5963,21.94
551,1179191.0,0.0,0.6158,21.94
552,1179193.0,0.3079,0.6158,21.94
553,1179195.0,0.0,0.6158,21.94
554,1179197.0,0.3079,0.6158,21.94
555,1179200.0,0.0,0.6158,21.94
556,1179202.0,0.3079,0.6158,21.94
557,1179204.0,0.0,0.6158,21.94
558,1179207.0,0.3079,0.6158,21.94
559,1179209.0,0.0,0.6109,21.94
560,1179211.0,0.3079,0.6109,21.94
561,1179214.0,0.0,0.5816,21.94
562,1179216.0,0.2981,0.5816,21.94
563,1179218.0,0.0,0.6158,21.94
564,1179222.0,0.3079,0.6158,21.94
565,1179224.0,0.0,0.6012,21.94
566,1179226.0,0.3079,0.6012,21.94
567,1179229.0,0.0,0.6012,21.94
568,1179231.0,0.303,0.6012,21.94
569,1179233.0,0.0,0.6012,21.94
570,1179235.0,0.303,0.6012,21.94
571,1179238.0,0.0,0.5963,21.94
572,1179240.0,0.303,0.5963,21.94
573,1179242.0,0.0,0.6109,21.94
574,1179245.0,0.3079,0.6109,21.94
575,1179247.0,0.0,0.5816,21.94
576,1179249.0,0.303,0.5816,21.94
577,1179252.0,0.0,0.6109,21.94
578,1179254.0,0.3079,0.6109,21.94
579,1179256.0,0.0,0.6158,21.94
580,1179259.0,0.3079,0.6158,21.94
581,1179261.0,0.0,0.6012,21.94
582,1179264.0,0.3079,0.6012,21.94
583,1179267.0,0.0,0.6012,21.94
584,1179269.0,0.3079,0.6012,21.94
585,1179271.0,0.0,0.6012,21.94
586,1179273.0,0.303,0.6012,21.94
587,1179276.0,0.0,0.6012,21.94
588,1179278.0,0.303,0.6012,21.94
589,1179281.0,0.0,0.5963,21.94
590,1179283.0,0.3079,0.5963,21.94
591,1179285.0,0.0,0.6109,21.94
592,1179287.0,0.3079,0.6109,21.94
593,1179290.0,0.0,0.5816,21.94
594,1179292.0,0.2933,0.5816,21.94
595,1179294.0,0.0,0.6158,21.94
596,1179297.0,0.3079,0.6158,21.94
597,1179299.0,0.0,0.6109,21.94
598,1179301.0,0.3079,0.6109,21.94
599,1179304.0,0.0,0.5816,21.94
600,1179307.0,0.303,0.5816,21.94
601,1179309.0,0.0,0.6158,21.94
602,1179312.0,0.3079,0.6158,21.94
603,1179314.0,0.0,0.5914,21.94
604,1179316.0,0.303,0.5914,21.94
605,1179319.0,0.0,0.6207,21.94
606,1179321.0,0.3079,0.6207,21.94
607,1179323.0,0.0,0.5865,21.94
608,1179325.0,0.303,0.5865,21.94
609,1179328.0,0.0,0.6012,21.94
610,1179330.0,0.3079,0.6012,21.94
611,1179332.0,0.0,0.6012,21.94
612,1179335.0,0.303,0.6012,21.94
613,1179337.0,0.0,0.6012,21.94
614,1179339.0,0.303,0.6012,21.94
615,1179342.0,0.0,0.6012,21.94
616,1179344.0,0.303,0.6012,21.94
617,1179346.0,0.0,0.6061,21.94
618,1179350.0,0.3079,0.6061,21.94
619,1179352.0,0.0,0.5914,21.94
620,1179354.0,0.303,0.5914,21.94
621,1179357.0,0.0,0.6207,21.94
622,1179359.0,0.3079,0.6207,21.94
623,1179361.0,0.0,0.5914,21.94
624,1179363.0,0.303,0.5914,21.94
625,1179366.0,0.0,0.6158,21.94
626,1179368.0,0.3079,0.6158,21.94
627,1179370.0,0.0,0.6158,21.94
628,1179373.0,0.3079,0.6158,21.94
629,1179375.0,0.0,0.6158,21.94
630,1179377.0,0.3079,0.6158,21.94
631,1179380.0,0.0,0.6158,21.94
632,1179382.0,0.3079,0.6158,21.94
633,1179384.0,0.0,0.6012,21.94
634,1179387.0,0.303,0.6012,21.94
635,1179389.0,0.0,0.5914,21.94
636,1179392.0,0.303,0.5914,21.94
637,1179395.0,0.0,0.6207,21.94
638,1179397.0,0.3079,0.6207,21.94
639,1179399.0,0.0,0.5914,21.94
640,1179401.0,0.303,0.5914,21.94
641,1179404.0,0.0,0.6061,21.94
642,1179406.0,0.3079,0.6061,21.94
643,1179409.0,0.0,0.6012,21.94
644,1179411.0,0.303,0.6012,21.94
645,1179413.0,0.0,0.5963,21.94
646,1179415.0,0.303,0.5963,21.94
647,1179418.0,0.0,0.6109,21.94
648,1179420.0,0.3079,0.6109,21.94
649,1179422.0,0.0,0.5914,21.94
650,1179425.0,0.303,0.5914,21.94
651,1179427.0,0.0,0.6158,21.94
652,1179429.0,0.3079,0.6158,21.94
653,1179432.0,0.0,0.6158,21.94
654,1179435.0,0.3079,0.6158,21.94
655,1179437.0,0.0,0.6207,21.94
656,1179440.0,0.3079,0.6207,21.94
657,1179442.0,0.0,0.6109,21.94
658,1179444.0,0.3079,0.6109,21.94
659,1179447.0,0.0,0.5865,21.94
660,1179449.0,0.303,0.5865,21.94
661,1179451.0,0.0,0.6061,21.94
662,1179453.0,0.3079,0.6061,21.94
