,Time (ms),VConstant (v),VSpike (v),Temperature (C)
0,546.0,0.0,0.0,22.5
1,548.0,0.3421,0.3763,22.5
2,550.0,0.2493,0.3763,22.5
3,552.0,0.2199,0.3763,22.5
4,555.0,0.2004,0.3763,22.5
5,557.0,0.1808,0.3763,22.5
6,559.0,0.0,0.3763,22.5
7,562.0,0.0,0.3763,22.5
8,564.0,0.0,0.3763,22.5
9,566.0,0.0,0.3763,22.5
10,568.0,0.0,0.3763,22.5
11,570.0,0.0,0.3763,22.5
12,572.0,0.0,0.3763,22.5
13,574.0,0.0,0.3763,22.5
14,576.0,0.0,0.3763,22.5
15,578.0,0.0,0.3763,22.5
16,580.0,0.0,0.3763,22.5
17,582.0,0.0,0.3763,22.5
18,584.0,0.0,0.3763,22.5
19,586.0,0.0,0.3763,22.5
20,588.0,0.0,0.3763,22.5
21,590.0,0.0,0.3763,22.5
22,592.0,0.0,0.3763,22.5
23,594.0,0.0,0.3763,22.5
24,596.0,0.0,0.3763,22.5
25,599.0,0.0,0.3763,22.5
26,601.0,0.0,0.3763,22.5
27,603.0,0.0,0.3763,22.5
28,605.0,0.0,0.3763,22.5
29,607.0,0.0,0.3763,22.5
30,609.0,0.0,0.3763,22.5
31,611.0,0.0,0.3763,22.5
32,613.0,0.0,0.3763,22.5
33,615.0,0.0,0.3763,22.5
34,617.0,0.0,0.3763,22.5
35,619.0,0.0,0.3763,22.5
36,621.0,0.0,0.3763,22.5
37,623.0,0.0,0.3763,22.5
38,625.0,0.0,0.3763,22.5
39,627.0,0.0,0.3763,22.5
40,629.0,0.0,0.3763,22.5
41,631.0,0.0,0.3763,22.5
42,633.0,0.0,0.3763,22.5
43,635.0,0.0,0.3763,22.5
44,637.0,0.0,0.3763,22.5
45,640.0,0.0,0.3763,22.5
46,642.0,0.0,0.3763,22.5
47,644.0,0.0,0.3763,22.5
48,646.0,0.0,0.3763,22.5
49,648.0,0.0,0.3763,22.5
50,651.0,0.3372,0.3715,22.5
51,653.0,0.2444,0.3715,22.5
52,655.0,0.2151,0.3715,22.5
53,657.0,0.1906,0.3715,22.5
54,659.0,0.176,0.3715,22.5
55,661.0,0.0,0.3715,22.5
56,663.0,0.0,0.3715,22.5
57,665.0,0.0,0.3715,22.5
58,667.0,0.0,0.3715,22.5
59,669.0,0.0,0.3715,22.5
60,671.0,0.0,0.3715,22.5
61,673.0,0.0,0.3715,22.5
62,675.0,0.0,0.3715,22.5
63,677.0,0.0,0.3715,22.5
64,679.0,0.0,0.3715,22.5
65,681.0,0.0,0.3715,22.5
66,684.0,0.0,0.3715,22.5
67,686.0,0.0,0.3715,22.5
68,688.0,0.0,0.3715,22.5
69,690.0,0.0,0.3715,22.5
70,692.0,0.0,0.3715,22.5
71,694.0,0.0,0.3715,22.5
72,696.0,0.0,0.3715,22.5
73,698.0,0.0,0.3715,22.5
74,700.0,0.0,0.3715,22.5
75,702.0,0.0,0.3715,22.5
76,704.0,0.0,0.3715,22.5
77,706.0,0.0,0.3715,22.5
78,708.0,0.0,0.3715,22.5
79,710.0,0.0,0.3715,22.5
80,712.0,0.0,0.3715,22.5
81,714.0,0.0,0.3715,22.5
82,717.0,0.0,0.3715,22.5
83,719.0,0.0,0.3715,22.5
84,721.0,0.0,0.3715,22.5
85,723.0,0.0,0.3715,22.5
86,726.0,0.0,0.3715,22.5
87,728.0,0.0,0.3715,22.5
88,730.0,0.0,0.3715,22.5
89,732.0,0.0,0.3715,22.5
90,734.0,0.0,0.3715,22.5
91,736.0,0.0,0.3715,22.5
92,738.0,0.0,0.3715,22.5
93,740.0,0.0,0.3715,22.5
94,742.0,0.0,0.3715,22.5
95,744.0,0.0,0.3715,22.5
96,746.0,0.0,0.3715,22.5
97,748.0,0.0,0.3715,22.5
98,750.0,0.0,0.3715,22.5
99,752.0,0.3372,0.3715,22.5
100,754.0,0.2444,0.3715,22.5
101,756.0,0.2102,0.3715,22.5
102,758.0,0.1857,0.3715,22.5
103,760.0,0.1711,0.3715,22.5
104,762.0,0.1564,0.3715,22.5
105,764.0,0.0,0.3715,22.5
106,766.0,0.0,0.3715,22.5
107,769.0,0.0,0.3715,22.5
108,771.0,0.0,0.3715,22.5
109,773.0,0.0,0.3715,22.5
110,776.0,0.0,0.3715,22.5
111,778.0,0.0,0.3715,22.5
112,780.0,0.0,0.3715,22.5
113,782.0,0.0,0.3715,22.5
114,784.0,0.0,0.3715,22.5
115,786.0,0.0,0.3715,22.5
116,788.0,0.0,0.3715,22.5
117,790.0,0.0,0.3715,22.5
118,792.0,0.0,0.3715,22.5
119,794.0,0.0,0.3715,22.5
120,796.0,0.0,0.3715,22.5
121,798.0,0.0,0.3715,22.5
122,800.0,0.0,0.3715,22.5
123,802.0,0.0,0.3715,22.5
124,804.0,0.0,0.3715,22.5
125,806.0,0.0,0.3715,22.5
126,808.0,0.0,0.3715,22.5
127,811.0,0.0,0.3715,22.5
128,813.0,0.0,0.3715,22.5
129,815.0,0.0,0.3715,22.5
130,817.0,0.0,0.3715,22.5
131,819.0,0.0,0.3715,22.5
132,821.0,0.0,0.3715,22.5
133,823.0,0.0,0.3715,22.5
134,825.0,0.0,0.3715,22.5
135,827.0,0.0,0.3715,22.5
136,829.0,0.0,0.3715,22.5
137,831.0,0.0,0.3715,22.5
138,833.0,0.0,0.3715,22.5
139,835.0,0.0,0.3715,22.5
140,837.0,0.0,0.3715,22.5
141,839.0,0.0,0.3715,22.5
142,841.0,0.0,0.3715,22.5
143,843.0,0.0,0.3715,22.5
144,845.0,0.0,0.3715,22.5
145,847.0,0.0,0.3715,22.5
146,849.0,0.0,0.3715,22.5
147,851.0,0.0,0.3715,22.5
148,855.0,0.3324,0.3715,22.5
149,857.0,0.2444,0.3715,22.5
150,859.0,0.2102,0.3715,22.5
151,861.0,0.1857,0.3715,22.5
152,863.0,0.1662,0.3715,22.5
153,865.0,0.0,0.3715,22.5
154,867.0,0.0,0.3715,22.5
155,869.0,0.0,0.3715,22.5
156,871.0,0.0,0.3715,22.5
157,873.0,0.0,0.3715,22.5
158,875.0,0.0,0.3715,22.5
159,877.0,0.0,0.3715,22.5
160,879.0,0.0,0.3715,22.5
161,881.0,0.0,0.3715,22.5
162,883.0,0.0,0.3715,22.5
163,885.0,0.0,0.3715,22.5
164,887.0,0.0,0.3715,22.5
165,889.0,0.0,0.3715,22.5
166,891.0,0.0,0.3715,22.5
167,893.0,0.0,0.3715,22.5
168,896.0,0.0,0.3715,22.5
169,898.0,0.0,0.3715,22.5
170,900.0,0.0,0.3715,22.5
171,902.0,0.0,0.3715,22.5
172,904.0,0.0,0.3715,22.5
173,906.0,0.0,0.3715,22.5
174,908.0,0.0,0.3715,22.5
175,911.0,0.0,0.3715,22.5
176,913.0,0.0,0.3715,22.5
177,915.0,0.0,0.3715,22.5
178,917.0,0.0,0.3715,22.5
179,919.0,0.0,0.3715,22.5
180,921.0,0.0,0.3715,22.5
181,923.0,0.0,0.3715,22.5
182,925.0,0.0,0.3715,22.5
183,927.0,0.0,0.3715,22.5
184,929.0,0.0,0.3715,22.5
185,931.0,0.0,0.3715,22.5
186,933.0,0.0,0.3715,22.5
187,935.0,0.0,0.3715,22.5
188,937.0,0.0,0.3715,22.5
189,940.0,0.0,0.3715,22.5
190,942.0,0.0,0.3715,22.5
191,944.0,0.0,0.3715,22.5
192,946.0,0.0,0.3715,22.5
193,948.0,0.0,0.3715,22.5
194,950.0,0.0,0.3715,22.5
195,952.0,0.0,0.3715,22.5
196,954.0,0.3372,0.3715,22.5
197,956.0,0.2444,0.3715,22.5
198,958.0,0.2102,0.3715,22.5
199,960.0,0.1857,0.3715,22.5
200,962.0,0.1662,0.3715,22.5
201,964.0,0.1515,0.3715,22.5
202,966.0,0.0,0.3715,22.5
203,969.0,0.0,0.3715,22.5
204,971.0,0.0,0.3715,22.5
205,973.0,0.0,0.3715,22.5
206,975.0,0.0,0.3715,22.5
207,977.0,0.0,0.3715,22.5
208,979.0,0.0,0.3715,22.5
209,982.0,0.0,0.3715,22.5
210,984.0,0.0,0.3715,22.5
211,157846.0,0.2102,0.3715,22.5
212,157848.0,0.0,0.2444,22.5
213,157851.0,0.2102,0.2444,22.5
214,157853.0,0.0,0.2444,22.5
215,157855.0,0.2102,0.2444,22.5
216,157857.0,0.0,0.2444,22.5
217,157860.0,0.2102,0.2444,22.5
218,157862.0,0.0,0.2444,22.5
219,157864.0,0.2102,0.2444,22.5
220,157868.0,0.0,0.2444,22.5
221,157870.0,0.2102,0.2444,22.5
222,157872.0,0.0,0.2444,22.5
223,157874.0,0.2102,0.2444,22.5
224,157877.0,0.0,0.2444,22.5
225,157879.0,0.2102,0.2444,22.5
226,157881.0,0.0,0.2444,22.5
227,157883.0,0.2102,0.2444,22.5
228,157886.0,0.0,0.2444,22.5
229,157888.0,0.2102,0.2444,22.5
230,157890.0,0.0,0.2444,22.5
231,157893.0,0.2102,0.2493,22.5
232,157895.0,0.0,0.2493,22.5
233,157897.0,0.2102,0.2444,22.5
234,157899.0,0.0,0.2444,22.5
235,157902.0,0.2102,0.2444,22.5
236,157904.0,0.0,0.2444,22.5
237,157906.0,0.2102,0.2444,22.5
238,157908.0,0.0,0.2444,22.5
239,157912.0,0.2102,0.2444,22.5
240,157914.0,0.0,0.2444,22.5
241,157916.0,0.2102,0.2444,22.5
242,157918.0,0.0,0.2444,22.5
243,157921.0,0.2102,0.2444,22.5
244,157923.0,0.0,0.2444,22.5
245,157925.0,0.2102,0.2444,22.5
246,157927.0,0.0,0.2444,22.5
247,157930.0,0.2102,0.2444,22.5
248,157932.0,0.0,0.2444,22.5
249,157934.0,0.2102,0.2444,22.5
250,157936.0,0.0,0.2444,22.5
251,157939.0,0.2102,0.2493,22.5
252,157941.0,0.0,0.2493,22.5
253,157943.0,0.2102,0.2444,22.5
254,157946.0,0.0,0.2444,22.5
255,157948.0,0.2102,0.2444,22.5
256,157950.0,0.0,0.2444,22.5
257,157953.0,0.2102,0.2444,22.5
258,157956.0,0.0,0.2444,22.5
259,157958.0,0.2102,0.2444,22.5
260,157960.0,0.0,0.2444,22.5
261,157963.0,0.2102,0.2493,22.5
262,157965.0,0.0,0.2493,22.5
263,157967.0,0.2102,0.2444,22.5
264,157969.0,0.0,0.2444,22.5
265,157972.0,0.2102,0.2444,22.5
266,157974.0,0.0,0.2444,22.5
267,157976.0,0.2102,0.2444,22.5
268,157978.0,0.0,0.2444,22.5
269,157981.0,0.2102,0.2444,22.5
270,157983.0,0.0,0.2444,22.5
271,157985.0,0.2102,0.2444,22.5
272,157987.0,0.0,0.2444,22.5
273,157990.0,0.2102,0.2444,22.5
274,157992.0,0.0,0.2444,22.5
275,157995.0,0.2102,0.2493,22.5
276,157997.0,0.0,0.2493,22.5
277,158000.0,0.2102,0.2444,22.5
278,158002.0,0.0,0.2444,22.5
279,158004.0,0.2102,0.2444,22.5
280,158006.0,0.0,0.2444,22.5
281,158009.0,0.2102,0.2493,22.5
282,158011.0,0.0,0.2493,22.5
283,158013.0,0.2102,0.2444,22.5
284,158016.0,0.0,0.2444,22.5
285,158018.0,0.2102,0.2444,22.5
286,158020.0,0.0,0.2444,22.5
287,158022.0,0.2102,0.2444,22.5
288,158025.0,0.0,0.2444,22.5
289,158027.0,0.2102,0.2444,22.5
290,158029.0,0.0,0.2444,22.5
291,158031.0,0.2102,0.2444,22.5
292,158034.0,0.0,0.2444,22.5
293,158036.0,0.2102,0.2444,22.5
294,158039.0,0.0,0.2444,22.5
295,158042.0,0.2102,0.2493,22.5
296,158044.0,0.0,0.2493,22.5
297,158046.0,0.2102,0.2444,22.5
298,158048.0,0.0,0.2444,22.5
299,158051.0,0.2102,0.2444,22.5
300,158053.0,0.0,0.2444,22.5
301,158055.0,0.2102,0.2444,22.5
302,158057.0,0.0,0.2444,22.5
303,158060.0,0.2102,0.2444,22.5
304,158062.0,0.0,0.2444,22.5
305,158064.0,0.2102,0.2444,22.5
306,158066.0,0.0,0.2444,22.5
307,158069.0,0.2102,0.2444,22.5
308,158071.0,0.0,0.2444,22.5
309,158073.0,0.2102,0.2444,22.5
310,158075.0,0.0,0.2444,22.5
311,158078.0,0.2102,0.2444,22.5
312,158081.0,0.0,0.2444,22.5
313,158083.0,0.2102,0.2493,22.5
314,158085.0,0.0,0.2493,22.5
315,158088.0,0.2102,0.2493,22.5
316,158090.0,0.0,0.2493,22.5
317,158092.0,0.2102,0.2444,22.5
318,158095.0,0.0,0.2444,22.5
319,158097.0,0.2102,0.2444,22.5
320,158099.0,0.0,0.2444,22.5
321,158101.0,0.2102,0.2444,22.5
322,158104.0,0.0,0.2444,22.5
323,158106.0,0.2102,0.2444,22.5
324,158108.0,0.0,0.2444,22.5
325,158111.0,0.2102,0.2444,22.5
326,158113.0,0.0,0.2444,22.5
327,158115.0,0.2102,0.2444,22.5
328,158117.0,0.0,0.2444,22.5
329,158120.0,0.2102,0.2444,22.5
330,158123.0,0.0,0.2444,22.5
331,158125.0,0.2102,0.2444,22.5
332,158127.0,0.0,0.2444,22.5
333,158130.0,0.2102,0.2444,22.5
334,158132.0,0.0,0.2444,22.5
335,158134.0,0.2102,0.2444,22.5
336,158136.0,0.0,0.2444,22.5
337,158139.0,0.2102,0.2444,22.5
338,158141.0,0.0,0.2444,22.5
339,158143.0,0.2102,0.2444,22.5
340,158145.0,0.0,0.2444,22.5
341,158148.0,0.2102,0.2444,22.5
342,158150.0,0.0,0.2444,22.5
343,158152.0,0.2102,0.2444,22.5
344,158154.0,0.0,0.2444,22.5
345,158157.0,0.2102,0.2444,22.5
346,158159.0,0.0,0.2444,22.5
347,158161.0,0.2102,0.2444,22.5
348,158164.0,0.0,0.2444,22.5
349,158167.0,0.2102,0.2444,22.5
350,158680.0,0.0,0.2444,22.5
351,158682.0,0.3372,0.3715,22.56
352,158685.0,0.0,0.3715,22.56
353,158687.0,0.2981,0.3324,22.56
354,158689.0,0.0,0.3324,22.56
355,158691.0,0.2835,0.3177,22.56
356,158694.0,0.0,0.3177,22.56
357,158696.0,0.2688,0.303,22.56
358,158698.0,0.0,0.303,22.56
359,158701.0,0.2639,0.2981,22.56
360,158703.0,0.0,0.2981,22.56
361,158705.0,0.259,0.2884,22.56
362,161004.0,0.0,0.2493,22.56
363,161518.0,0.3372,0.3715,22.56
364,161520.0,0.0,0.3715,22.56
365,161522.0,0.2981,0.3324,22.56
366,161524.0,0.0,0.3324,22.56
367,161527.0,0.2835,0.3177,22.56
368,161529.0,0.0,0.3177,22.56
369,161531.0,0.2688,0.303,22.56
370,161534.0,0.0,0.303,22.56
371,161537.0,0.2639,0.2981,22.56
372,161539.0,0.0,0.2981,22.56
373,161541.0,0.2542,0.2884,22.56
374,161544.0,0.0,0.2884,22.56
375,161546.0,0.2493,0.2835,22.56
376,161548.0,0.0,0.2835,22.56
377,161550.0,0.2444,0.2786,22.56
378,161553.0,0.0,0.2786,22.56
379,161555.0,0.2444,0.2786,22.56
380,161557.0,0.0,0.2786,22.56
381,161559.0,0.2395,0.2688,22.56
382,161562.0,0.0,0.2688,22.56
383,161564.0,0.2346,0.2688,22.56
384,161566.0,0.0,0.2688,22.56
385,161568.0,0.2346,0.2688,22.56
386,161571.0,0.0,0.2688,22.56
387,161573.0,0.2346,0.2688,22.56
388,161575.0,0.0,0.2688,22.56
389,161579.0,0.2297,0.2639,22.56
390,161581.0,0.0,0.2639,22.56
391,161583.0,0.2297,0.259,22.56
392,161585.0,0.0,0.259,22.56
393,161588.0,0.2297,0.2639,22.56
394,161590.0,0.0,0.2639,22.56
395,161592.0,0.2248,0.259,22.56
396,161594.0,0.0,0.259,22.56
397,161597.0,0.2248,0.259,22.56
398,161599.0,0.0,0.259,22.56
399,161601.0,0.2248,0.259,22.56
400,161603.0,0.0,0.259,22.56
401,161606.0,0.2248,0.2542,22.56
402,161608.0,0.0,0.2542,22.56
403,161610.0,0.2248,0.259,22.56
404,161613.0,0.0,0.259,22.56
405,161615.0,0.2248,0.2542,22.56
406,161617.0,0.0,0.2542,22.56
407,161619.0,0.2199,0.259,22.56
408,161623.0,0.0,0.259,22.56
409,161625.0,0.2199,0.2542,22.56
410,161627.0,0.0,0.2542,22.56
411,161629.0,0.2199,0.2542,22.56
412,161632.0,0.0,0.2542,22.56
413,161634.0,0.2199,0.2542,22.56
414,161636.0,0.0,0.2542,22.56
415,161638.0,0.2199,0.2542,22.56
416,161641.0,0.0,0.2542,22.56
417,161643.0,0.2199,0.2542,22.56
418,161645.0,0.0,0.2542,22.56
419,161647.0,0.2199,0.2542,22.56
420,161650.0,0.0,0.2542,22.56
421,161652.0,0.2151,0.2493,22.56
422,161654.0,0.0,0.2493,22.56
423,161656.0,0.2199,0.2542,22.56
424,161659.0,0.0,0.2542,22.56
425,161661.0,0.2151,0.2493,22.56
426,161664.0,0.0,0.2493,22.56
427,161666.0,0.2199,0.2542,22.56
428,161669.0,0.0,0.2542,22.56
429,161671.0,0.2151,0.2493,22.56
430,161673.0,0.0,0.2493,22.56
431,161676.0,0.2151,0.2493,22.56
432,161678.0,0.0,0.2493,22.56
433,161680.0,0.2199,0.2542,22.56
434,161682.0,0.0,0.2542,22.56
435,161685.0,0.2199,0.2542,22.56
436,161687.0,0.0,0.2542,22.56
437,161689.0,0.2151,0.2493,22.56
438,161691.0,0.0,0.2493,22.56
439,161694.0,0.2151,0.2493,22.56
440,161696.0,0.0,0.2493,22.56
441,161698.0,0.2151,0.2542,22.56
442,161701.0,0.0,0.2542,22.56
443,161703.0,0.2151,0.2493,22.56
444,161705.0,0.0,0.2493,22.56
445,161708.0,0.2151,0.2542,22.56
446,161711.0,0.0,0.2542,22.56
447,161713.0,0.2151,0.2542,22.56
448,161715.0,0.0,0.2542,22.56
449,161717.0,0.2151,0.2493,22.56
450,161720.0,0.0,0.2493,22.56
451,161722.0,0.2151,0.2493,22.56
452,161724.0,0.0,0.2493,22.56
453,161726.0,0.2151,0.2493,22.56
454,161729.0,0.0,0.2493,22.56
455,161731.0,0.2151,0.2493,22.56
456,161733.0,0.0,0.2493,22.56
457,161735.0,0.2151,0.2493,22.56
458,161738.0,0.0,0.2493,22.56
459,161740.0,0.2151,0.2493,22.56
460,161742.0,0.0,0.2493,22.56
461,161744.0,0.2151,0.2493,22.56
462,161747.0,0.0,0.2493,22.56
463,161750.0,0.2151,0.2493,22.56
464,161752.0,0.0,0.2493,22.56
465,161755.0,0.2151,0.2493,22.56
466,161757.0,0.0,0.2493,22.56
467,161759.0,0.2151,0.2493,22.56
468,161761.0,0.0,0.2493,22.56
469,161764.0,0.2151,0.2493,22.56
470,161766.0,0.0,0.2493,22.56
471,161768.0,0.2151,0.2493,22.56
472,161771.0,0.0,0.2493,22.56
473,161773.0,0.2151,0.2542,22.56
474,161775.0,0.0,0.2542,22.56
475,161777.0,0.2151,0.2444,22.56
476,161780.0,0.0,0.2444,22.56
477,161782.0,0.2151,0.2493,22.56
478,161784.0,0.0,0.2493,22.56
479,161786.0,0.2151,0.2493,22.56
480,161789.0,0.0,0.2493,22.56
481,161792.0,0.2151,0.2493,22.56
482,161794.0,0.0,0.2493,22.56
483,161796.0,0.2151,0.2493,22.56
484,161799.0,0.0,0.2493,22.56
485,161801.0,0.2151,0.2493,22.56
486,161803.0,0.0,0.2493,22.56
487,161805.0,0.2151,0.2493,22.56
488,161808.0,0.0,0.2493,22.56
489,161810.0,0.2151,0.2493,22.56
490,161812.0,0.0,0.2493,22.56
491,161815.0,0.2102,0.2444,22.56
492,161817.0,0.0,0.2444,22.56
493,161819.0,0.2151,0.2493,22.56
494,161821.0,0.0,0.2493,22.56
495,161824.0,0.2151,0.2493,22.56
496,161826.0,0.0,0.2493,22.56
497,161828.0,0.2151,0.2493,22.56
498,161830.0,0.0,0.2493,22.56
499,161833.0,0.2151,0.2493,22.56
500,161836.0,0.0,0.2493,22.56
501,161838.0,0.2151,0.2493,22.56
502,161841.0,0.0,0.2493,22.56
503,161843.0,0.2151,0.2493,22.56
504,161845.0,0.0,0.2493,22.56
505,161847.0,0.2102,0.2493,22.56
506,161850.0,0.0,0.2493,22.56
507,161852.0,0.2151,0.2493,22.56
508,161854.0,0.0,0.2493,22.56
509,161856.0,0.2102,0.2493,22.56
510,161859.0,0.0,0.2493,22.56
511,161861.0,0.2102,0.2493,22.56
512,161863.0,0.0,0.2493,22.56
513,161865.0,0.2151,0.2493,22.56
514,161868.0,0.0,0.2493,22.56
515,161870.0,0.2151,0.2493,22.56
516,161872.0,0.0,0.2493,22.56
517,161874.0,0.2102,0.2493,22.56
518,161878.0,0.0,0.2493,22.56
519,161880.0,0.2151,0.2493,22.56
520,161882.0,0.0,0.2493,22.56
521,161885.0,0.2102,0.2493,22.56
522,161887.0,0.0,0.2493,22.56
523,161889.0,0.2151,0.2542,22.56
524,161891.0,0.0,0.2542,22.56
525,161894.0,0.2102,0.2493,22.56
526,161896.0,0.0,0.2493,22.56
527,161898.0,0.2102,0.2493,22.56
528,161900.0,0.0,0.2493,22.56
529,161903.0,0.2102,0.2493,22.56
530,161905.0,0.0,0.2493,22.56
531,161907.0,0.2151,0.2493,22.56
532,161910.0,0.0,0.2493,22.56
533,161912.0,0.2102,0.2493,22.56
534,161914.0,0.0,0.2493,22.56
535,161916.0,0.2151,0.2493,22.56
536,161920.0,0.0,0.2493,22.56
537,161922.0,0.2102,0.2493,22.56
538,161924.0,0.0,0.2493,22.56
539,161926.0,0.2102,0.2493,22.56
540,161929.0,0.0,0.2493,22.56
541,161931.0,0.2102,0.2493,22.56
542,161933.0,0.0,0.2493,22.56
543,161935.0,0.2102,0.2493,22.56
544,161938.0,0.0,0.2493,22.56
545,161940.0,0.2102,0.2493,22.56
546,161942.0,0.0,0.2493,22.56
547,161944.0,0.2102,0.2493,22.56
548,161947.0,0.0,0.2493,22.56
549,161949.0,0.2102,0.2493,22.56
550,161951.0,0.0,0.2493,22.56
551,161954.0,0.2102,0.2444,22.56
552,161956.0,0.0,0.2444,22.56
553,161958.0,0.2102,0.2493,22.56
554,161960.0,0.0,0.2493,22.56
555,161964.0,0.2102,0.2493,22.56
556,161966.0,0.0,0.2493,22.56
557,161968.0,0.2102,0.2493,22.56
558,161970.0,0.0,0.2493,22.56
559,161973.0,0.2102,0.2493,22.56
560,161975.0,0.0,0.2493,22.56
561,161977.0,0.2102,0.2493,22.56
562,161980.0,0.0,0.2493,22.56
563,161982.0,0.2151,0.2493,22.56
564,161984.0,0.0,0.2493,22.56
565,161986.0,0.2102,0.2493,22.56
566,161989.0,0.0,0.2493,22.56
567,161991.0,0.2102,0.2493,22.56
568,161993.0,0.0,0.2493,22.56
569,161995.0,0.2102,0.2493,22.56
570,161998.0,0.0,0.2493,22.56
571,162000.0,0.2102,0.2493,22.56
572,162002.0,0.0,0.2493,22.56
573,162004.0,0.2102,0.2493,22.56
574,162008.0,0.0,0.2493,22.56
575,162010.0,0.2102,0.2493,22.56
576,162012.0,0.0,0.2493,22.56
577,162014.0,0.2102,0.2493,22.56
578,162017.0,0.0,0.2493,22.56
579,162019.0,0.2151,0.2493,22.56
580,162021.0,0.0,0.2493,22.56
581,162024.0,0.2102,0.2444,22.56
582,162026.0,0.0,0.2444,22.56
583,162028.0,0.2102,0.2493,22.56
584,162030.0,0.0,0.2493,22.56
585,162033.0,0.2151,0.2493,22.56
586,162035.0,0.0,0.2493,22.56
587,162037.0,0.2102,0.2493,22.56
588,162039.0,0.0,0.2493,22.56
589,162042.0,0.2102,0.2493,22.56
590,162044.0,0.0,0.2493,22.56
591,162046.0,0.2102,0.2493,22.56
592,162050.0,0.0,0.2493,22.56
593,162052.0,0.2102,0.2493,22.56
594,162054.0,0.0,0.2493,22.56
595,162056.0,0.2102,0.2493,22.56
596,162059.0,0.0,0.2493,22.56
597,162061.0,0.2102,0.2493,22.56
598,162063.0,0.0,0.2493,22.56
599,162065.0,0.2102,0.2493,22.56
600,162068.0,0.0,0.2493,22.56
601,162070.0,0.2102,0.2493,22.56
602,162072.0,0.0,0.2493,22.56
603,162074.0,0.2102,0.2493,22.56
604,162077.0,0.0,0.2493,22.56
605,162079.0,0.2102,0.2493,22.56
606,162081.0,0.0,0.2493,22.56
607,162083.0,0.2102,0.2493,22.56
608,162086.0,0.0,0.2493,22.56
609,162088.0,0.2102,0.2493,22.56
610,162091.0,0.0,0.2493,22.56
611,162094.0,0.2102,0.2444,22.56
612,162096.0,0.0,0.2444,22.56
613,162098.0,0.2102,0.2493,22.56
614,162100.0,0.0,0.2493,22.56
615,162103.0,0.2102,0.2493,22.56
616,162105.0,0.0,0.2493,22.56
617,162107.0,0.2102,0.2493,22.56
618,162109.0,0.0,0.2493,22.56
619,162112.0,0.2102,0.2493,22.56
620,162114.0,0.0,0.2493,22.56
621,162116.0,0.2102,0.2493,22.56
622,162119.0,0.0,0.2493,22.56
623,162121.0,0.2102,0.2493,22.56
624,162123.0,0.0,0.2493,22.56
625,162125.0,0.2102,0.2493,22.56
626,162128.0,0.0,0.2493,22.56
627,162130.0,0.2102,0.2493,22.56
628,162132.0,0.0,0.2493,22.56
629,162135.0,0.2102,0.2493,22.56
630,162138.0,0.0,0.2493,22.56
631,162140.0,0.2102,0.2493,22.56
632,162142.0,0.0,0.2493,22.56
633,162144.0,0.2102,0.2493,22.56
634,162147.0,0.0,0.2493,22.56
635,162149.0,0.2151,0.2493,22.56
636,162151.0,0.0,0.2493,22.56
637,162153.0,0.2102,0.2493,22.56
638,162156.0,0.0,0.2493,22.56
639,162158.0,0.2102,0.2493,22.56
640,162160.0,0.0,0.2493,22.56
641,162163.0,0.2102,0.2444,22.56
642,162165.0,0.0,0.2444,22.56
643,162167.0,0.2102,0.2493,22.56
644,162169.0,0.0,0.2493,22.56
645,162172.0,0.2102,0.2493,22.56
646,162174.0,0.0,0.2493,22.56
647,162177.0,0.2102,0.2444,22.56
648,162179.0,0.0,0.2444,22.56
649,162182.0,0.2102,0.2493,22.56
650,162184.0,0.0,0.2493,22.56
651,162186.0,0.2102,0.2493,22.56
652,162189.0,0.0,0.2493,22.56
653,162191.0,0.2102,0.2493,22.56
654,162193.0,0.0,0.2493,22.56
